"data","otw","min","max","zamkniecie","zmiana","obroty mln"
"2010-01-04","15,90","15,60","15,90","15,80","+0,00","0,50"
"2010-01-05","15,98","15,85","16,00","15,85","+0,32","0,69"
"2010-01-06","15,86","15,75","16,00","15,85","+0,00","0,18"
"2010-01-07","15,75","15,63","15,78","15,78","-0,44","0,04"
"2010-01-08","15,85","15,85","16,00","15,90","+0,76","0,12"
"2010-01-11","16,20","15,80","16,20","16,00","+0,63","0,49"
"2010-01-12","16,20","15,35","16,20","15,99","-0,06","0,20"
"2010-01-13","15,96","15,79","15,96","15,79","-1,25","0,01"
"2010-01-14","15,80","15,50","15,80","15,50","-1,84","0,02"
"2010-01-15","15,52","15,36","16,05","16,05","+3,55","0,10"
"2010-01-18","15,90","15,90","16,23","16,00","-0,31","0,02"
"2010-01-19","16,20","15,95","16,25","16,25","+1,56","0,17"
"2010-01-20","16,25","16,00","16,25","16,19","-0,37","0,04"
"2010-01-21","16,25","15,75","16,25","15,95","-1,48","0,07"
"2010-01-22","15,95","15,51","15,95","15,51","-2,76","0,01"
"2010-01-25","15,60","15,60","16,02","15,66","+0,97","0,14"
"2010-01-26","15,66","15,66","15,66","15,66","+0,00","0,04"
"2010-01-27","15,99","15,66","15,99","15,66","+0,00","0,08"
"2010-01-28","15,76","15,51","16,01","16,01","+2,23","0,17"
"2010-01-29","16,00","16,00","16,00","16,00","-0,06","0,00"
"2010-02-01","15,35","15,34","16,05","16,05","+0,31","0,12"
"2010-02-02","16,00","16,00","16,00","16,00","-0,31","0,51"
"2010-02-03","16,00","16,00","16,05","16,05","+0,31","0,08"
"2010-02-04","16,05","15,50","16,05","15,50","-3,43","0,11"
"2010-02-05","15,50","15,50","15,90","15,90","+2,58","0,12"
"2010-02-08","15,90","15,51","15,90","15,80","-0,63","0,88"
"2010-02-09","16,00","15,99","16,00","16,00","+1,27","0,02"
"2010-02-10","16,00","15,60","16,15","16,15","+0,94","0,10"
"2010-02-11","16,15","15,10","16,15","16,00","-0,93","0,04"
"2010-02-12","16,04","16,00","16,04","16,04","+0,25","0,02"
"2010-02-15","16,04","15,50","16,20","16,20","+1,00","0,09"
"2010-02-16","16,30","16,30","16,40","16,40","+1,23","0,02"
"2010-02-17","16,40","16,20","17,00","17,00","+3,66","0,13"
"2010-02-18","17,35","17,35","17,65","17,35","+2,06","0,65"
"2010-02-19","17,35","17,35","17,35","17,35","+0,00","0,04"
"2010-02-22","17,60","17,00","17,60","17,23","+0,00","0,03"
"2010-02-23","17,20","17,10","17,20","17,20","-0,17","0,03"
"2010-02-24","17,45","16,90","17,95","17,50","+1,74","0,06"
"2010-02-25","17,93","17,45","17,95","17,95","+2,57","0,06"
"2010-02-26","17,01","17,01","17,95","17,95","+0,00","4,31"
"2010-03-01","17,79","17,65","17,79","17,78","-0,95","0,36"
"2010-03-02","16,80","16,80","17,85","17,78","+0,00","0,42"
"2010-03-03","17,95","17,30","17,95","17,50","-1,57","0,08"
"2010-03-04","17,30","17,30","18,15","18,00","+2,86","0,10"
"2010-03-05","18,29","18,00","18,29","18,00","+0,00","0,01"
"2010-03-09","18,21","18,20","19,00","19,00","+5,56","1,17"
"2010-03-10","18,95","18,78","18,95","18,95","-0,26","1,02"
"2010-03-11","18,95","18,90","19,30","19,15","+1,06","1,51"
"2010-03-12","19,15","19,00","19,15","19,15","+0,00","0,08"
"2010-03-15","19,15","19,00","19,15","19,00","-0,78","0,01"
"2010-03-16","19,28","19,28","19,28","19,28","+1,47","0,01"
"2010-03-17","19,44","19,35","19,63","19,35","+0,36","1,76"
"2010-03-18","19,80","19,21","19,80","19,30","-0,26","0,07"
"2010-03-19","18,80","18,80","18,95","18,90","-2,07","0,06"
"2010-03-22","18,90","18,15","18,90","18,15","-3,97","0,01"
"2010-03-23","18,15","17,20","18,15","17,20","-5,23","0,03"
"2010-03-24","17,20","16,65","17,20","16,90","-1,74","0,16"
"2010-03-25","17,15","16,80","17,15","17,14","+1,42","0,07"
"2010-03-26","17,30","17,30","17,74","17,35","+1,23","0,08"
"2010-03-29","17,20","17,20","18,95","18,15","+4,61","0,81"
"2010-03-30","18,85","18,41","19,19","18,95","+4,41","0,03"
"2010-03-31","18,95","18,90","19,19","18,95","+0,00","0,24"
"2010-04-01","19,00","18,70","19,19","19,19","+1,27","0,48"
"2010-04-06","18,55","18,55","19,10","19,00","-0,99","0,20"
"2010-04-07","18,50","17,70","19,06","19,00","+0,00","0,22"
"2010-04-08","19,13","18,40","19,13","19,00","+0,00","0,17"
"2010-04-09","19,00","19,00","19,00","19,00","+0,00","0,20"
"2010-04-12","19,05","18,45","19,05","18,45","+0,00","0,14"
"2010-04-13","18,00","17,70","18,25","18,23","-1,19","0,02"
"2010-04-14","17,80","17,80","18,65","18,63","+2,19","0,22"
"2010-04-15","19,00","18,09","19,00","18,10","-2,84","0,27"
"2010-04-16","17,80","17,80","17,80","17,80","-1,66","0,05"
"2010-04-19","17,50","17,00","17,50","17,00","-4,49","0,23"
"2010-04-20","17,05","17,05","17,50","17,50","+2,94","0,34"
"2010-04-21","17,15","16,95","17,60","17,00","-2,86","0,10"
"2010-04-22","16,91","16,91","17,45","17,10","+0,59","0,03"
"2010-04-23","17,10","17,10","18,00","18,00","+5,26","0,03"
"2010-04-26","18,00","17,45","18,00","17,80","-1,11","0,02"
"2010-04-27","17,60","17,01","17,60","17,40","-2,25","0,03"
"2010-04-28","16,80","16,75","16,90","16,75","-3,74","0,08"
"2010-04-29","18,00","16,30","18,00","16,59","-0,96","0,04"
"2010-04-30","16,60","16,30","16,65","16,30","-1,75","0,02"
"2010-05-04","16,35","16,00","16,35","16,00","-1,84","0,19"
"2010-05-05","16,09","16,09","16,70","16,30","+1,88","0,02"
"2010-05-06","16,30","16,30","16,70","16,70","+2,45","0,04"
"2010-05-07","16,30","16,15","16,30","16,20","-2,99","0,06"
"2010-05-10","16,70","16,30","16,95","16,30","+0,62","0,07"
"2010-05-11","16,30","16,30","16,50","16,47","+1,04","1,21"
"2010-05-12","16,45","16,30","16,45","16,30","-1,03","0,13"
"2010-05-13","16,85","15,75","16,85","16,00","-1,84","0,32"
"2010-05-14","16,00","15,30","16,00","15,55","-2,81","0,07"
"2010-05-17","15,65","15,41","15,65","15,41","-0,90","0,03"
"2010-05-18","15,88","15,40","15,89","15,88","+3,05","0,17"
"2010-05-19","15,46","15,39","15,85","15,85","-0,19","0,34"
"2010-05-20","15,97","15,25","15,97","15,25","-3,79","0,08"
"2010-05-21","15,00","14,30","15,00","15,00","-1,64","0,04"
"2010-05-24","14,70","14,32","14,70","14,32","-4,53","0,23"
"2010-05-25","14,30","13,90","14,40","13,90","-2,93","0,04"
"2010-05-26","14,80","14,23","14,80","14,23","+2,37","0,03"
"2010-05-27","14,45","13,80","14,45","13,80","-3,02","0,04"
"2010-05-28","14,20","14,20","14,79","14,60","+5,80","0,06"
"2010-05-31","14,61","14,61","14,65","14,62","+0,00","0,00"
"2010-06-01","14,98","14,60","15,45","14,61","-0,07","0,17"
"2010-06-02","15,00","14,61","15,00","14,61","+0,00","0,04"
"2010-06-04","14,65","14,65","15,10","15,10","+3,35","0,00"
"2010-06-07","15,20","15,20","15,45","15,21","+0,73","0,05"
"2010-06-08","15,22","15,22","15,22","15,22","+0,07","0,02"
"2010-06-09","15,50","15,02","15,50","15,02","-1,31","0,02"
"2010-06-10","14,75","14,60","15,09","15,09","+0,47","0,13"
"2010-06-11","15,09","15,09","15,09","15,09","+0,00","0,01"
"2010-06-14","14,71","14,60","15,00","14,61","-3,18","0,08"
"2010-06-15","14,60","14,60","14,70","14,70","+0,62","0,01"
"2010-06-16","15,00","14,60","15,45","14,60","-0,68","0,14"
"2010-06-17","14,62","14,60","14,65","14,65","+0,34","0,02"
"2010-06-18","14,60","14,60","14,60","14,60","-0,34","0,01"
"2010-06-21","14,60","14,60","14,60","14,60","+0,00","0,12"
"2010-06-22","14,60","14,60","14,60","14,60","+0,00","0,09"
"2010-06-23","15,09","14,60","15,09","14,60","+0,00","0,02"
"2010-06-24","14,60","14,60","14,60","14,60","+0,00","0,09"
"2010-06-25","14,90","14,55","15,09","15,09","+3,36","3,07"
"2010-06-28","14,70","14,62","14,70","14,62","-3,11","0,03"
"2010-06-29","14,62","14,60","14,62","14,60","-0,14","0,10"
"2010-06-30","14,60","14,60","14,60","14,60","+0,00","0,06"
"2010-07-01","14,60","14,60","14,60","14,60","+0,00","0,00"
"2010-07-02","14,60","14,60","14,91","14,91","+2,12","0,08"
"2010-07-05","14,90","14,90","14,91","14,91","+0,00","0,02"
"2010-07-06","14,93","14,93","15,64","15,15","+1,61","1,63"
"2010-07-07","15,16","15,16","15,60","15,60","+2,97","0,78"
"2010-07-08","15,60","15,40","15,60","15,50","-0,64","0,02"
"2010-07-09","16,10","16,10","17,05","16,50","+6,45","0,23"
"2010-07-12","17,20","16,80","17,20","17,15","+3,94","0,15"
"2010-07-13","17,20","17,15","17,39","17,39","+1,40","0,38"
"2010-07-14","17,50","17,25","17,50","17,45","+0,35","0,09"
"2010-07-15","17,45","17,45","17,60","17,60","+0,86","0,07"
"2010-07-16","17,62","17,62","17,64","17,63","+0,17","0,02"
"2010-07-19","17,60","17,50","17,75","17,69","+0,34","0,04"
"2010-07-20","17,70","17,40","17,70","17,40","+0,00","0,03"
"2010-07-21","17,30","17,21","17,30","17,25","-0,86","0,06"
"2010-07-22","17,25","16,60","17,25","17,18","-0,41","0,03"
"2010-07-23","17,20","17,18","17,30","17,25","+0,41","0,02"
"2010-07-26","17,74","17,40","17,74","17,40","+0,87","0,06"
"2010-07-27","17,60","17,60","17,64","17,63","+1,32","0,06"
"2010-07-28","17,75","17,63","17,75","17,75","+0,68","0,06"
"2010-07-29","17,80","17,70","17,89","17,80","+0,28","0,13"
"2010-07-30","17,63","17,63","17,89","17,79","-0,06","0,02"
"2010-08-02","17,60","17,50","17,68","17,68","-0,62","0,06"
"2010-08-03","17,80","17,79","17,80","17,79","+0,62","0,07"
"2010-08-04","17,80","17,77","17,87","17,87","+0,45","0,02"
"2010-08-05","17,90","17,70","17,90","17,90","+0,17","0,03"
"2010-08-06","17,86","17,70","17,86","17,85","-0,28","0,16"
"2010-08-09","17,80","17,50","17,80","17,55","-1,68","0,04"
"2010-08-10","17,75","17,55","17,75","17,70","+0,85","0,02"
"2010-08-11","17,64","17,45","17,64","17,60","-0,56","0,03"
"2010-08-12","17,62","17,45","17,62","17,45","-0,85","0,03"
"2010-08-13","17,60","17,00","17,60","17,17","-1,60","0,08"
"2010-08-16","17,17","17,00","17,17","17,00","-0,99","0,06"
"2010-08-17","16,85","16,50","16,99","16,99","-0,06","0,03"
"2010-08-18","16,99","16,99","16,99","16,99","+0,00","0,01"
"2010-08-19","17,44","17,44","17,44","17,44","+2,65","0,00"
"2010-08-20","17,74","17,20","17,74","17,20","-1,38","0,01"
"2010-08-23","17,00","16,80","17,00","16,80","-2,33","0,01"
"2010-08-24","16,82","16,15","16,82","16,16","-3,81","0,15"
"2010-08-25","16,10","16,10","16,10","16,10","-0,37","0,01"
"2010-08-26","16,00","16,00","16,30","16,30","+1,24","0,13"
"2010-08-27","16,30","16,30","16,90","16,90","+3,68","0,02"
"2010-08-30","17,00","16,60","17,00","17,00","+0,59","0,01"
"2010-08-31","16,80","16,35","17,39","17,39","+2,29","0,17"
"2010-09-01","17,29","16,55","17,29","17,27","-0,69","0,01"
"2010-09-02","17,28","16,80","17,28","17,20","-0,41","0,00"
"2010-09-03","17,28","17,00","17,28","17,10","-0,58","0,03"
"2010-09-06","17,29","17,25","17,29","17,25","+0,88","0,00"
"2010-09-07","17,20","16,70","17,20","16,70","-3,19","0,10"
"2010-09-08","16,60","16,60","17,06","17,05","+0,00","0,01"
"2010-09-09","16,55","16,50","16,95","16,90","-0,88","0,01"
"2010-09-10","16,90","16,43","16,90","16,43","-2,78","0,07"
"2010-09-13","16,41","16,40","16,41","16,41","-0,12","0,12"
"2010-09-14","16,35","16,00","16,35","16,00","-2,50","0,09"
"2010-09-15","15,80","15,79","16,00","15,80","-1,25","0,07"
"2010-09-16","15,80","15,80","16,39","16,39","+3,73","0,01"
"2010-09-17","16,47","16,43","16,47","16,43","+0,24","0,00"
"2010-09-20","16,39","15,95","16,67","16,67","+1,46","0,12"
"2010-09-21","16,70","16,41","16,90","16,80","+0,78","0,10"
"2010-09-22","16,90","15,95","16,90","16,85","+0,30","0,25"
"2010-09-23","16,69","15,95","16,69","16,57","-1,66","0,09"
"2010-09-24","16,79","16,00","16,79","16,78","+1,27","0,02"
"2010-09-27","16,79","16,01","16,79","16,50","-1,67","0,02"
"2010-09-28","16,70","16,00","16,70","16,48","-0,12","0,10"
"2010-09-29","16,48","16,00","16,48","16,40","-0,49","0,05"
"2010-09-30","16,00","16,00","16,70","16,70","+1,83","0,09"
"2010-10-01","16,90","16,00","16,90","16,59","-0,66","0,04"
"2010-10-04","16,70","15,97","16,70","16,29","-1,81","0,15"
"2010-10-05","16,35","16,00","16,35","16,35","+0,37","0,02"
"2010-10-06","16,35","16,00","17,10","16,75","+2,45","0,20"
"2010-10-07","16,95","16,88","16,95","16,88","+0,78","0,00"
"2010-10-08","16,80","16,70","17,00","17,00","+0,71","0,03"
"2010-10-11","17,16","16,16","17,16","16,95","-0,29","0,01"
"2010-10-12","17,00","16,00","17,00","16,36","-3,48","0,06"
"2010-10-13","16,06","16,06","16,50","16,40","+0,24","0,02"
"2010-10-14","16,54","16,01","16,54","16,38","-0,12","0,10"
"2010-10-15","16,36","16,36","16,36","16,36","-0,12","0,00"
"2010-10-18","16,38","16,00","16,38","16,30","-0,37","0,15"
"2010-10-19","16,30","16,00","16,30","16,30","+0,00","0,11"
"2010-10-20","16,30","16,00","16,30","16,00","-1,84","1,34"
"2010-10-21","16,00","15,85","16,30","16,24","+1,50","0,17"
"2010-10-22","16,24","16,00","16,24","16,22","-0,12","0,03"
"2010-10-25","16,24","15,80","16,24","15,80","-2,59","0,06"
"2010-10-26","16,00","15,80","16,00","15,99","+1,20","0,03"
"2010-10-27","16,00","15,81","16,02","16,01","+0,13","0,10"
"2010-10-28","16,14","15,91","16,14","16,14","+0,00","0,02"
"2010-10-29","16,14","15,81","16,14","16,14","+0,00","0,04"
"2010-11-02","16,20","16,16","16,44","16,25","+0,68","0,12"
"2010-11-03","16,50","16,50","17,00","16,99","+4,55","0,22"
"2010-11-04","17,17","17,01","17,35","17,35","+2,12","0,12"
"2010-11-05","17,40","17,00","17,40","17,15","-1,15","0,04"
"2010-11-08","17,15","16,60","17,29","16,60","-3,21","0,11"
"2010-11-09","17,06","17,06","17,90","17,63","+6,20","0,94"
"2010-11-10","18,80","18,45","19,16","18,60","+5,50","2,33"
"2010-11-12","18,50","18,05","18,59","18,30","-1,61","0,22"
"2010-11-15","18,29","18,24","18,29","18,28","-0,11","0,05"
"2010-11-16","18,28","18,00","18,28","18,10","-0,98","0,36"
"2010-11-17","17,92","17,90","18,01","17,96","-0,77","0,04"
"2010-11-18","17,90","17,71","18,20","18,02","+0,33","0,08"
"2010-11-19","18,05","17,90","18,06","17,90","-0,67","0,11"
"2010-11-22","17,97","17,80","18,10","17,82","-0,45","0,03"
"2010-11-23","17,82","17,05","17,82","17,54","-1,57","0,11"
"2010-11-24","18,00","18,00","18,21","18,07","+3,02","0,38"
"2010-11-25","18,50","18,00","18,50","18,00","-0,39","0,29"
"2010-11-26","18,09","17,92","18,10","18,10","+0,56","0,30"
"2010-11-29","18,30","18,05","18,47","18,05","-0,28","0,03"
"2010-11-30","18,05","17,56","18,05","18,00","-0,28","0,08"
"2010-12-01","18,05","17,20","18,05","17,74","-1,44","10,42"
"2010-12-02","17,98","17,74","18,10","17,87","+0,73","0,07"
"2010-12-03","17,90","17,86","18,00","18,00","+0,73","0,03"
"2010-12-06","18,00","17,86","18,15","17,90","-0,56","0,08"
"2010-12-07","18,10","17,92","18,10","17,92","+0,11","0,04"
"2010-12-08","18,00","17,75","18,00","17,75","-0,95","0,01"
"2010-12-09","17,89","17,68","17,89","17,74","-0,06","0,01"
"2010-12-10","17,68","17,30","17,70","17,44","-1,69","0,20"
"2010-12-13","17,49","17,46","17,50","17,46","+0,11","0,01"
"2010-12-14","17,60","17,40","18,00","18,00","+3,09","0,05"
"2010-12-15","18,20","17,66","18,20","17,66","-1,89","0,24"
"2010-12-16","17,66","17,60","17,90","17,90","+1,36","0,04"
"2010-12-17","17,90","17,60","17,90","17,65","+0,00","0,04"
"2010-12-20","17,70","17,53","17,78","17,78","+0,74","0,03"
"2010-12-21","17,80","17,60","17,80","17,66","-0,67","0,15"
"2010-12-22","17,77","17,49","17,77","17,74","+0,45","0,09"
"2010-12-23","17,75","17,48","17,75","17,52","-1,24","0,03"
"2010-12-27","17,75","17,41","17,75","17,56","+0,23","0,01"
"2010-12-28","17,40","17,40","17,75","17,75","+1,08","0,05"
"2010-12-29","17,75","17,55","17,75","17,74","-0,06","0,06"
"2010-12-30","17,75","17,75","18,20","18,20","+2,59","0,21"
"2010-12-31","18,19","18,14","18,50","18,47","+1,48","0,32"
"2011-01-03","18,49","17,80","18,49","18,30","-0,92","0,03"
"2011-01-04","18,29","18,00","18,29","18,20","-0,55","0,01"
"2011-01-05","18,14","17,85","18,30","18,30","+0,55","0,02"
"2011-01-07","18,18","18,18","18,30","18,25","-0,27","0,02"
"2011-01-10","18,50","18,10","18,50","18,10","-0,82","0,03"
"2011-01-11","18,05","17,90","18,05","18,00","-0,55","0,01"
"2011-01-12","17,92","17,92","18,00","18,00","+0,00","0,03"
"2011-01-13","18,00","17,90","18,10","17,90","-0,56","0,02"
"2011-01-14","17,90","17,26","17,99","17,30","-3,35","0,05"
"2011-01-17","17,32","17,32","17,52","17,41","+0,64","0,12"
"2011-01-18","17,63","17,32","17,65","17,32","-0,52","0,06"
"2011-01-19","17,40","16,50","17,40","17,00","-1,85","0,07"
"2011-01-20","16,98","16,80","17,13","17,10","+0,59","0,01"
"2011-01-21","17,00","17,00","17,34","17,30","+1,17","0,02"
"2011-01-24","17,34","17,05","17,34","17,11","-1,10","0,01"
"2011-01-25","17,10","17,01","17,30","17,01","-0,58","0,04"
"2011-01-26","17,00","16,95","17,01","17,01","+0,00","0,03"
"2011-01-27","16,86","16,86","17,28","17,10","+0,53","0,07"
"2011-01-28","17,10","17,10","17,32","17,20","+0,58","0,11"
"2011-01-31","16,30","16,30","17,15","17,08","-0,70","0,05"
"2011-02-01","17,19","16,75","17,19","17,07","-0,06","0,04"
"2011-02-02","17,09","16,92","17,34","17,08","+0,06","0,08"
"2011-02-03","16,94","16,94","17,32","17,00","-0,47","0,02"
"2011-02-04","17,00","17,00","17,01","17,00","+0,00","0,02"
"2011-02-07","17,10","17,10","17,95","17,95","+0,00","0,04"
"2011-02-08","18,00","17,86","18,00","17,86","-0,50","0,01"
"2011-02-09","17,86","17,20","17,86","17,60","-1,46","0,05"
"2011-02-10","17,60","17,30","17,86","17,85","+1,42","0,03"
"2011-02-11","17,45","16,70","17,80","17,80","-0,28","0,08"
"2011-02-14","17,90","17,25","17,90","17,67","-0,73","0,03"
"2011-02-15","17,88","17,46","17,88","17,46","-1,19","0,01"
"2011-02-16","17,40","17,25","17,40","17,25","-1,20","0,01"
"2011-02-17","17,10","17,06","17,25","17,25","+0,00","0,03"
"2011-02-18","17,15","17,10","17,25","17,25","+0,00","0,02"
"2011-02-21","17,12","17,12","17,23","17,20","-0,29","0,05"
"2011-02-22","17,20","17,20","17,25","17,20","+0,00","0,05"
"2011-02-23","17,20","17,20","17,60","17,46","+1,51","1,42"
"2011-02-24","17,60","17,59","17,82","17,70","+1,37","0,01"
"2011-02-25","17,70","17,62","17,70","17,64","-0,34","0,00"
"2011-02-28","17,70","17,45","17,70","17,67","+0,17","0,06"
"2011-03-01","17,68","17,36","17,68","17,50","-0,96","0,01"
"2011-03-02","17,65","17,45","17,87","17,87","+2,11","0,23"
"2011-03-03","17,85","17,51","18,00","18,00","+0,73","0,62"
"2011-03-04","17,95","17,95","18,23","18,23","+1,28","0,22"
"2011-03-07","18,25","18,01","18,48","18,35","+0,66","1,33"
"2011-03-08","18,55","18,35","18,60","18,45","+0,54","0,19"
"2011-03-09","18,49","18,33","18,53","18,46","+0,05","0,24"
"2011-03-10","18,43","18,05","18,43","18,16","-1,63","0,02"
"2011-03-11","18,10","17,71","18,10","17,75","-2,26","0,04"
"2011-03-14","17,70","17,70","18,05","18,05","+1,69","0,02"
"2011-03-15","17,63","17,63","18,29","18,29","+1,33","0,02"
"2011-03-16","18,42","18,32","18,42","18,32","+0,16","0,01"
"2011-03-17","18,45","18,32","18,45","18,32","+0,00","0,02"
"2011-03-18","18,45","18,15","18,45","18,15","-0,93","0,02"
"2011-03-21","18,00","18,00","18,20","18,20","+0,28","0,00"
"2011-03-22","18,32","18,32","18,69","18,53","+1,81","0,18"
"2011-03-23","18,55","18,45","18,55","18,55","+0,11","0,01"
"2011-03-24","18,58","18,25","18,58","18,25","-1,62","0,04"
"2011-03-25","18,25","17,95","18,35","18,35","+0,55","0,12"
"2011-03-28","18,35","18,30","18,41","18,30","+0,00","0,02"
"2011-03-29","18,38","18,01","18,40","18,39","+0,49","0,11"
"2011-03-30","18,40","18,35","18,40","18,35","-0,22","0,03"
"2011-03-31","18,35","18,02","18,35","18,20","-0,82","0,03"
"2011-04-01","18,35","18,04","18,35","18,28","+0,44","0,02"
"2011-04-04","18,31","17,50","18,31","18,00","-1,53","0,01"
"2011-04-05","17,50","17,50","17,79","17,70","-1,67","0,04"
"2011-04-06","17,56","17,41","17,80","17,80","+0,56","0,03"
"2011-04-07","17,98","17,80","17,98","17,80","+0,00","0,00"
"2011-04-08","17,70","17,60","17,93","17,80","+0,00","0,01"
"2011-04-11","17,60","17,51","17,80","17,51","-1,63","0,08"
"2011-04-12","17,50","17,20","17,54","17,40","-0,63","0,22"
"2011-04-13","17,42","17,20","17,74","17,30","-0,57","0,04"
"2011-04-14","17,40","16,95","17,40","17,35","+0,29","0,06"
"2011-04-15","17,55","17,21","17,55","17,21","-0,81","1,74"
"2011-04-18","17,20","16,72","17,35","17,35","+0,81","0,03"
"2011-04-19","17,30","17,30","17,45","17,45","+0,58","0,01"
"2011-04-20","17,44","17,30","17,45","17,34","-0,63","0,01"
"2011-04-21","17,49","17,05","17,49","17,05","-1,67","0,02"
"2011-04-26","17,05","16,65","17,05","16,80","-1,47","0,05"
"2011-04-27","16,90","16,88","16,90","16,89","+0,54","0,01"
"2011-04-28","16,89","16,51","16,90","16,51","-2,25","0,01"
"2011-04-29","16,60","16,02","16,60","16,50","-0,06","0,01"
"2011-05-02","16,89","16,50","16,89","16,50","+0,00","0,01"
"2011-05-04","16,60","16,40","16,60","16,40","-0,61","0,02"
"2011-05-05","16,48","16,30","16,49","16,30","-0,61","0,00"
"2011-05-06","16,25","16,00","16,25","16,00","-1,84","0,07"
"2011-05-09","16,00","15,76","16,00","16,00","+0,00","0,05"
"2011-05-10","16,01","15,45","16,01","15,90","-0,62","0,26"
"2011-05-11","15,79","15,79","15,82","15,82","-0,50","0,00"
"2011-05-12","15,79","15,79","16,00","15,79","-0,19","0,01"
"2011-05-13","15,90","14,72","15,90","14,81","-6,21","0,09"
"2011-05-16","14,00","13,90","14,50","14,05","+0,00","0,15"
"2011-05-17","14,08","13,80","14,15","13,88","-1,21","0,09"
"2011-05-18","14,15","13,77","14,15","13,83","-0,36","0,16"
"2011-05-19","13,94","13,36","13,94","13,36","-3,40","0,07"
"2011-05-20","13,26","13,26","13,59","13,50","+1,05","0,02"
"2011-05-23","13,49","13,49","13,60","13,55","+0,37","0,02"
"2011-05-24","13,55","13,51","13,55","13,55","+0,00","0,00"
"2011-05-25","13,55","13,55","13,59","13,59","+0,30","0,02"
"2011-05-26","13,60","13,48","13,60","13,48","-0,81","0,02"
"2011-05-27","13,45","13,45","13,60","13,60","+0,89","0,01"
"2011-05-30","13,66","13,55","13,95","13,55","-0,37","0,01"
"2011-05-31","13,60","13,55","13,60","13,55","+0,00","0,00"
"2011-06-01","13,65","13,55","13,65","13,59","+0,30","0,02"
"2011-06-02","13,60","13,60","13,65","13,65","+0,44","0,01"
"2011-06-03","13,65","13,65","13,69","13,65","+0,00","0,01"
"2011-06-06","13,65","13,61","13,95","13,95","+2,20","0,01"
"2011-06-07","13,95","13,62","13,95","13,95","+0,00","0,01"
"2011-06-08","13,98","13,96","14,33","14,15","+1,43","0,14"
"2011-06-09","14,15","14,15","14,33","14,33","+1,27","0,01"
"2011-06-10","14,41","14,06","14,41","14,41","+0,56","0,08"
"2011-06-13","14,41","14,24","14,48","14,35","-0,42","0,02"
"2011-06-14","14,40","14,21","14,40","14,30","-0,35","0,02"
"2011-06-15","14,36","13,91","14,36","14,00","-2,10","0,07"
"2011-06-16","14,00","13,60","14,00","13,70","-2,14","0,04"
"2011-06-17","13,80","13,60","13,80","13,60","-0,73","0,13"
"2011-06-20","13,60","13,30","13,60","13,35","-1,84","0,01"
"2011-06-21","13,35","12,25","13,35","12,95","-3,00","0,03"
"2011-06-22","12,98","12,28","12,98","12,50","-3,47","0,06"
"2011-06-24","12,30","11,30","12,40","11,56","-7,52","0,06"
"2011-06-27","11,56","10,50","11,56","10,66","-7,79","0,08"
"2011-06-28","10,99","10,60","11,20","10,75","+0,84","0,03"
"2011-06-29","10,75","10,71","10,89","10,80","+0,47","0,09"
"2011-06-30","11,00","10,95","11,50","11,00","+1,85","0,03"
"2011-07-01","11,10","10,90","11,40","10,90","-0,91","0,09"
"2011-07-04","11,00","10,45","11,00","10,59","-2,84","0,03"
"2011-07-05","10,68","10,25","10,70","10,40","+0,00","0,02"
"2011-07-06","10,40","10,22","10,40","10,35","-0,48","0,03"
"2011-07-07","10,30","10,30","10,35","10,30","-0,48","0,01"
"2011-07-08","10,30","10,20","10,30","10,28","-0,19","0,00"
"2011-07-11","10,28","10,10","10,28","10,10","-1,75","0,05"
"2011-07-12","10,10","10,00","10,10","10,00","-0,99","0,02"
"2011-07-13","10,11","10,00","10,26","10,00","+0,00","0,09"
"2011-07-14","9,72","9,71","9,97","9,71","-2,90","0,70"
"2011-07-15","9,60","9,50","9,60","9,50","-2,16","0,01"
"2011-07-18","9,28","9,00","9,40","9,20","-3,16","0,03"
"2011-07-19","9,20","8,77","9,20","8,86","-3,70","0,01"
"2011-07-20","8,60","8,42","8,85","8,85","-0,11","0,78"
"2011-07-21","8,88","8,44","8,88","8,86","+0,11","0,04"
"2011-07-22","8,86","8,75","8,86","8,78","-0,90","0,01"
"2011-07-25","8,75","8,75","8,88","8,88","+1,14","0,01"
"2011-07-26","8,85","8,73","8,85","8,84","-0,45","0,00"
"2011-07-27","8,84","8,61","8,84","8,62","-2,49","0,01"
"2011-07-28","8,62","8,41","8,80","8,80","+2,09","0,07"
"2011-07-29","8,75","8,51","8,75","8,75","-0,57","0,01"
"2011-08-01","8,75","8,75","9,55","9,10","+4,00","0,14"
"2011-08-02","9,10","9,10","9,35","9,10","+0,00","0,02"
"2011-08-03","9,00","8,75","9,01","8,85","-2,75","0,01"
"2011-08-04","8,84","8,00","8,84","8,00","-9,60","0,01"
"2011-08-05","7,75","7,42","7,75","7,67","-4,13","0,02"
"2011-08-08","7,10","7,05","7,35","7,10","-7,43","0,04"
"2011-08-09","7,10","6,81","7,30","7,10","+0,00","0,06"
"2011-08-10","7,19","7,19","7,55","7,39","+4,08","0,01"
"2011-08-11","7,30","7,30","7,80","7,50","+1,49","0,04"
"2011-08-12","7,80","7,80","8,00","8,00","+6,67","0,14"
"2011-08-16","8,80","8,50","8,80","8,60","+7,50","0,04"
"2011-08-17","8,60","8,60","8,67","8,60","+0,00","0,01"
"2011-08-18","8,60","7,75","8,60","7,75","-9,88","0,03"
"2011-08-19","7,75","7,30","7,75","7,70","-0,65","0,02"
"2011-08-22","7,90","7,85","8,00","7,90","+2,60","0,25"
"2011-08-23","8,08","7,70","8,08","7,90","+0,00","0,10"
"2011-08-24","7,99","7,66","7,99","7,78","+0,00","0,00"
"2011-08-25","7,80","7,63","7,80","7,80","+0,26","0,01"
"2011-08-26","7,80","7,77","7,80","7,80","+0,00","0,14"
"2011-08-29","7,90","7,89","7,90","7,90","+1,28","0,01"
"2011-08-30","8,00","7,89","8,04","7,90","+0,00","0,58"
"2011-08-31","8,00","7,79","8,00","7,79","-1,39","0,00"
"2011-09-01","7,71","7,66","7,71","7,70","-1,16","0,01"
"2011-09-02","7,70","7,33","7,70","7,35","-4,55","0,01"
"2011-09-05","7,00","6,75","7,00","6,85","-6,80","0,02"
"2011-09-06","6,65","6,60","6,74","6,74","-1,61","0,01"
"2011-09-07","6,61","6,61","6,80","6,79","+0,74","0,01"
"2011-09-08","6,74","6,74","7,05","6,92","+1,91","0,01"
"2011-09-09","6,92","6,92","7,09","7,09","+2,46","0,00"
"2011-09-12","6,92","6,56","6,92","6,70","-5,50","0,02"
"2011-09-13","6,71","6,52","6,71","6,62","-1,19","0,00"
"2011-09-14","6,59","6,52","6,59","6,52","-1,51","0,00"
"2011-09-15","6,52","6,20","6,52","6,40","-1,84","0,10"
"2011-09-16","6,40","6,00","6,40","6,10","-4,69","0,03"
"2011-09-19","6,14","6,05","6,14","6,07","-0,49","0,01"
"2011-09-20","6,06","6,06","6,08","6,08","+0,16","0,05"
"2011-09-21","6,10","5,99","6,10","6,00","-1,32","0,01"
"2011-09-22","5,93","5,78","5,94","5,78","-3,67","0,02"
"2011-09-23","5,70","5,60","5,70","5,70","-1,38","0,04"
"2011-09-26","5,50","5,10","5,60","5,53","-2,98","0,17"
"2011-09-27","5,56","5,32","5,56","5,43","-1,81","0,02"
"2011-09-28","5,42","5,40","5,48","5,46","+0,55","0,04"
"2011-09-29","5,45","5,30","5,45","5,35","-2,01","0,01"
"2011-09-30","5,35","5,21","5,35","5,30","-0,93","0,00"
"2011-10-03","5,30","5,01","5,30","5,01","-5,47","0,06"
"2011-10-04","5,00","4,91","5,01","5,00","-0,20","0,01"
"2011-10-05","5,00","4,96","5,14","5,09","+1,80","0,16"
"2011-10-06","5,15","5,00","5,18","5,15","+1,18","0,07"
"2011-10-07","5,29","5,12","5,29","5,15","+0,00","0,03"
"2011-10-10","5,19","5,11","5,19","5,16","+0,19","0,02"
"2011-10-11","5,15","5,05","5,20","5,13","-0,58","0,06"
"2011-10-12","5,20","5,10","5,33","5,11","-0,39","0,79"
"2011-10-13","5,12","5,11","5,33","5,11","+0,00","0,40"
"2011-10-14","5,27","5,27","5,70","5,70","+11,55","0,15"
"2011-10-17","5,81","5,81","7,00","6,14","+7,72","0,20"
"2011-10-18","6,14","5,70","6,14","5,73","-6,68","0,13"
"2011-10-19","5,75","5,58","5,90","5,65","-1,40","0,07"
"2011-10-20","5,60","5,41","5,60","5,57","-1,42","0,68"
"2011-10-21","5,63","5,37","5,85","5,85","+5,03","0,09"
"2011-10-24","5,89","5,80","6,05","6,05","+3,42","0,04"
"2011-10-25","6,09","5,77","6,14","5,77","-4,63","0,03"
"2011-10-26","5,80","5,67","5,83","5,67","-1,73","0,01"
"2011-10-27","5,70","5,70","6,25","6,16","+8,64","0,86"
"2011-10-28","6,46","6,12","6,48","6,12","-0,65","0,12"
"2011-10-31","6,20","6,00","6,20","6,05","-1,14","0,02"
"2011-11-02","5,87","5,60","6,01","5,80","-4,13","0,07"
"2011-11-03","5,75","5,75","6,10","6,10","+5,17","0,06"
"2011-11-04","6,19","5,95","6,19","6,13","+0,49","0,02"
"2011-11-07","6,14","6,10","6,20","6,10","-0,49","0,01"
"2011-11-08","6,10","6,00","6,16","6,10","+0,00","0,05"
"2011-11-09","6,10","5,90","6,10","5,90","-3,28","0,07"
"2011-11-10","5,79","5,79","5,80","5,80","-1,69","0,02"
"2011-11-14","5,95","5,82","5,95","5,82","+0,34","0,03"
"2011-11-15","5,61","5,39","5,61","5,50","-5,50","0,14"
"2011-11-16","5,46","5,41","5,46","5,44","-1,09","0,05"
"2011-11-17","5,46","5,31","5,46","5,43","-0,18","0,01"
"2011-11-18","5,54","5,12","5,54","5,12","-5,71","0,04"
"2011-11-21","5,10","4,87","5,10","4,87","-4,88","0,04"
"2011-11-22","4,87","4,51","4,93","4,52","-7,19","0,03"
"2011-11-23","4,44","4,01","4,70","4,44","-1,77","0,19"
"2011-11-24","4,44","4,42","4,44","4,42","-0,45","0,00"
"2011-11-25","4,44","4,38","4,44","4,39","-0,68","0,00"
"2011-11-28","4,40","4,01","4,40","4,21","-4,10","0,11"
"2011-11-29","4,16","4,15","4,39","4,39","+4,28","0,41"
"2011-11-30","4,39","4,22","4,50","4,49","+2,28","0,03"
"2011-12-01","4,50","4,20","4,60","4,39","-2,23","0,06"
"2011-12-02","4,37","4,25","4,37","4,32","+0,00","0,02"
"2011-12-05","4,33","4,16","4,34","4,20","-2,78","0,51"
"2011-12-06","4,20","4,20","4,30","4,29","+2,14","0,01"
"2011-12-07","4,30","4,05","4,30","4,20","-2,10","0,23"
"2011-12-08","4,21","4,00","4,21","4,05","-3,57","0,03"
"2011-12-09","4,06","3,80","4,12","4,12","+1,73","0,04"
"2011-12-12","4,05","4,05","4,17","4,17","+1,21","0,89"
"2011-12-13","4,20","4,20","4,30","4,29","+2,88","0,05"
"2011-12-14","4,30","4,22","4,38","4,30","+0,23","0,04"
"2011-12-15","4,35","4,25","4,35","4,30","+0,00","0,06"
"2011-12-16","4,34","4,24","4,38","4,30","+0,00","0,03"
"2011-12-19","4,35","4,28","4,38","4,28","-0,47","0,04"
"2011-12-20","4,35","4,31","4,35","4,35","+1,64","0,04"
"2011-12-21","4,43","4,40","4,43","4,41","+1,38","0,05"
"2011-12-22","4,43","4,40","4,49","4,45","+0,91","0,02"
"2011-12-23","4,50","4,46","4,50","4,46","+0,22","0,00"
"2011-12-27","4,45","4,36","4,45","4,40","-1,35","0,02"
"2011-12-28","4,40","4,37","4,40","4,40","+0,00","0,02"
"2011-12-29","4,37","4,35","4,40","4,40","+0,00","0,02"
"2011-12-30","4,40","4,39","4,40","4,40","+0,00","0,01"
"2012-01-02","4,38","4,36","4,38","4,36","-0,91","0,00"
"2012-01-03","4,36","4,30","4,39","4,39","+0,69","0,02"
"2012-01-04","4,39","4,27","4,39","4,27","-2,73","0,01"
"2012-01-05","4,30","4,22","4,37","4,29","+0,47","0,01"
"2012-01-09","4,37","4,35","4,37","4,37","+1,86","0,01"
"2012-01-10","4,37","4,37","4,49","4,48","+2,52","0,00"
"2012-01-11","4,48","4,47","4,82","4,82","+7,59","0,09"
"2012-01-12","4,80","4,80","5,19","5,09","+5,60","0,07"
"2012-01-13","5,09","5,00","5,24","5,00","-1,77","0,03"
"2012-01-16","4,99","4,99","5,09","5,08","+1,60","0,01"
"2012-01-17","5,09","5,09","5,52","5,50","+8,27","0,05"
"2012-01-18","5,80","5,72","5,88","5,83","+6,00","0,09"
"2012-01-19","5,83","5,82","5,97","5,84","+0,17","0,07"
"2012-01-20","5,84","5,70","5,89","5,70","-2,40","0,03"
"2012-01-23","5,65","5,30","5,65","5,64","+0,00","0,03"
"2012-01-24","5,61","5,59","6,14","6,14","+8,87","0,11"
"2012-01-25","6,14","6,14","6,55","6,55","+6,68","0,05"
"2012-01-26","6,80","6,78","7,00","6,88","+5,04","0,08"
"2012-01-27","6,91","6,90","7,15","7,15","+3,92","0,10"
"2012-01-30","7,07","7,05","7,20","7,20","+0,70","0,04"
"2012-01-31","7,19","7,14","7,38","7,30","+1,39","0,16"
"2012-02-01","7,30","7,00","7,30","7,24","-0,82","0,09"
"2012-02-02","7,20","7,20","7,30","7,30","+0,83","0,83"
"2012-02-03","7,23","7,10","7,36","7,30","+0,00","0,11"
"2012-02-06","7,15","7,15","7,38","7,29","-0,14","0,03"
"2012-02-07","7,29","7,08","7,35","7,20","-1,23","0,02"
"2012-02-08","7,27","7,27","7,34","7,31","+1,53","0,04"
"2012-02-09","7,31","7,15","7,31","7,25","-0,82","0,07"
"2012-02-10","7,27","7,01","7,27","7,18","-0,97","0,05"
"2012-02-13","7,17","7,17","7,70","7,70","+7,24","0,14"
"2012-02-14","8,03","7,34","8,03","7,59","-1,43","0,12"
"2012-02-15","7,59","7,59","8,08","8,08","+6,46","0,13"
"2012-02-16","8,07","7,85","8,07","8,00","-0,99","0,23"
"2012-02-17","8,10","8,09","8,70","8,20","+2,50","0,95"
"2012-02-20","8,59","8,50","8,89","8,79","+7,20","0,07"
"2012-02-21","8,89","8,22","8,90","8,22","-6,48","0,11"
"2012-02-22","8,20","7,80","8,20","8,00","-2,68","0,12"
"2012-02-23","7,91","7,91","8,35","8,20","+2,50","0,11"
"2012-02-24","8,20","8,05","8,30","8,05","-1,83","0,10"
"2012-02-27","8,09","7,92","8,09","7,99","-0,75","0,01"
"2012-02-28","7,99","7,91","7,99","7,91","-1,00","0,01"
"2012-02-29","7,56","7,14","7,61","7,15","-9,61","0,09"
"2012-03-01","6,91","6,87","7,57","7,50","+4,90","3,01"
"2012-03-02","7,35","7,35","7,50","7,49","-0,13","0,08"
"2012-03-05","7,45","7,37","7,57","7,43","-0,80","0,29"
"2012-03-06","7,43","7,11","7,43","7,13","-4,04","0,30"
"2012-03-07","7,19","7,05","7,30","7,30","+2,38","0,02"
"2012-03-08","7,30","7,28","7,48","7,47","+2,33","0,05"
"2012-03-09","7,47","7,35","7,47","7,40","-0,94","0,02"
"2012-03-12","7,40","7,15","7,40","7,20","+0,00","0,01"
"2012-03-13","7,25","7,15","7,25","7,20","+0,00","0,03"
"2012-03-14","7,20","7,20","7,37","7,20","+0,00","0,03"
"2012-03-15","7,20","7,20","7,25","7,20","+0,00","0,05"
"2012-03-16","7,08","6,70","7,08","6,73","-6,53","0,07"
"2012-03-19","6,89","6,80","6,99","6,99","+3,86","0,31"
"2012-03-20","6,85","6,80","6,99","6,99","+0,00","0,01"
"2012-03-21","6,80","6,50","6,80","6,60","-5,58","0,08"
"2012-03-22","6,65","6,38","6,65","6,47","-1,97","0,03"
"2012-03-23","6,26","6,26","6,64","6,58","+1,70","0,07"
"2012-03-26","6,58","6,40","6,58","6,54","-0,61","0,06"
"2012-03-27","6,55","6,55","6,68","6,68","+2,14","0,54"
"2012-03-28","6,69","6,68","6,92","6,92","+3,59","0,01"
"2012-03-29","6,80","6,75","7,00","6,99","+1,01","0,01"
"2012-03-30","7,05","6,78","7,05","6,97","-0,29","0,01"
"2012-04-02","6,98","6,93","6,99","6,99","+0,29","0,01"
"2012-04-03","6,98","6,80","6,98","6,80","-2,72","0,00"
"2012-04-04","6,85","6,30","6,85","6,42","-5,59","0,04"
"2012-04-05","6,30","6,30","6,59","6,42","+0,00","0,14"
"2012-04-10","6,30","6,00","6,44","6,09","-5,14","0,03"
"2012-04-11","5,84","5,84","6,09","6,09","+0,00","0,02"
"2012-04-12","6,09","6,00","6,09","6,07","-0,33","0,00"
"2012-04-13","6,09","6,00","6,10","6,00","-1,15","0,37"
"2012-04-16","6,11","6,11","6,19","6,18","+3,00","0,00"
"2012-04-17","6,10","6,10","6,31","6,10","-1,29","0,01"
"2012-04-18","6,11","6,11","6,47","6,40","+4,92","0,02"
"2012-04-19","6,48","6,48","6,66","6,50","+1,56","0,21"
"2012-04-20","6,67","6,47","6,67","6,58","+1,23","0,00"
"2012-04-23","6,54","5,90","6,54","6,16","-6,38","0,05"
"2012-04-24","5,61","5,61","6,49","6,49","+5,36","0,05"
"2012-04-25","6,21","5,99","6,30","5,99","-7,70","0,40"
"2012-04-26","5,98","5,60","5,98","5,63","-6,01","0,03"
"2012-04-27","5,56","5,55","5,99","5,99","+6,39","0,83"
"2012-04-30","6,00","6,00","6,14","6,10","+0,00","0,00"
"2012-05-02","6,15","6,04","6,19","6,10","+0,00","0,06"
"2012-05-04","6,16","6,12","6,18","6,18","+1,31","0,09"
"2012-05-07","6,10","5,83","6,10","6,00","-2,91","0,01"
"2012-05-08","6,07","5,90","6,07","5,90","-1,67","0,24"
"2012-05-09","5,93","5,81","5,93","5,82","-1,36","0,00"
"2012-05-10","5,80","5,69","5,82","5,80","-0,34","0,01"
"2012-05-11","5,67","5,67","5,83","5,70","-1,72","0,40"
"2012-05-14","5,70","5,59","5,70","5,68","-0,35","0,05"
"2012-05-15","5,70","5,64","5,70","5,64","-0,70","0,00"
"2012-05-16","5,52","5,10","5,52","5,30","-6,03","0,04"
"2012-05-17","5,15","4,92","5,15","4,92","-7,17","0,02"
"2012-05-18","4,92","4,68","5,30","5,29","+7,52","0,31"
"2012-05-21","5,26","5,26","6,00","5,99","+13,23","0,09"
"2012-05-22","5,99","5,98","6,16","5,98","-0,17","0,05"
"2012-05-23","5,91","5,80","5,91","5,80","-3,01","0,05"
"2012-05-24","5,80","5,60","5,80","5,60","-3,45","0,01"
"2012-05-25","5,68","5,50","5,68","5,50","-1,79","0,01"
"2012-05-28","5,50","5,30","5,50","5,45","-0,91","0,01"
"2012-05-29","5,50","5,33","5,50","5,33","-2,20","0,01"
"2012-05-30","5,39","5,07","5,39","5,10","-4,32","0,04"
"2012-05-31","5,00","4,73","5,00","5,00","-1,96","0,05"
"2012-06-01","4,95","4,85","5,22","4,95","-1,00","0,12"
"2012-06-04","4,93","4,55","4,93","4,67","-5,66","0,11"
"2012-06-05","4,52","4,37","4,62","4,43","-5,14","0,12"
"2012-06-06","4,42","4,30","4,42","4,30","-2,93","0,01"
"2012-06-08","4,25","4,25","4,61","4,61","+7,21","0,03"
"2012-06-11","4,61","4,60","4,86","4,80","+4,12","0,01"
"2012-06-12","4,80","4,80","5,01","4,92","+2,50","0,04"
"2012-06-13","5,00","5,00","5,40","5,40","+9,76","0,04"
"2012-06-14","5,40","5,40","5,90","5,88","+8,89","0,03"
"2012-06-15","5,95","5,89","6,20","6,19","+5,27","0,08"
"2012-06-18","6,20","6,19","6,20","6,19","+0,00","0,03"
"2012-06-19","6,20","6,10","6,20","6,18","+0,00","0,00"
"2012-06-20","6,18","5,70","6,18","5,70","-7,77","0,01"
"2012-06-21","5,70","5,35","5,78","5,35","-6,14","0,02"
"2012-06-22","5,40","5,00","5,41","5,08","-5,05","0,03"
"2012-06-25","5,00","4,81","5,00","4,81","-5,31","0,01"
"2012-06-26","4,81","4,68","5,07","4,98","+3,53","0,02"
"2012-06-27","5,20","4,89","5,29","4,89","-1,81","0,03"
"2012-06-28","4,89","4,60","5,21","4,67","-4,50","0,12"
"2012-06-29","4,70","4,21","4,70","4,24","-9,21","0,24"
"2012-07-02","4,23","3,68","4,23","3,80","-10,38","0,15"
"2012-07-03","3,84","3,46","3,90","3,54","-6,84","0,14"
"2012-07-04","3,55","3,35","3,55","3,45","-2,54","0,04"
"2012-07-05","3,46","3,43","3,69","3,69","+6,96","0,37"
"2012-07-06","3,69","3,69","3,88","3,82","+3,52","0,08"
"2012-07-09","3,79","3,76","3,99","3,99","+4,45","0,03"
"2012-07-10","4,11","3,90","4,11","3,98","-0,25","0,01"
"2012-07-11","3,97","3,70","3,97","3,75","-5,78","0,07"
"2012-07-12","3,70","3,60","3,70","3,61","-3,73","0,10"
"2012-07-13","3,64","3,63","3,69","3,67","+1,66","0,01"
"2012-07-16","3,69","3,64","3,70","3,67","+0,00","0,02"
"2012-07-17","3,68","3,60","3,68","3,64","-0,82","0,01"
"2012-07-18","3,60","3,60","3,82","3,82","+4,95","0,02"
"2012-07-19","3,83","3,70","3,83","3,70","-3,14","0,00"
"2012-07-20","3,70","3,65","3,70","3,67","-0,81","0,00"
"2012-07-23","3,60","3,50","3,62","3,62","-1,36","0,01"
"2012-07-24","3,62","3,52","3,62","3,60","-0,55","0,00"
"2012-07-25","3,53","3,53","3,60","3,60","+0,00","0,01"
"2012-07-26","3,60","3,42","3,62","3,50","-2,78","0,02"
"2012-07-27","3,53","3,44","3,58","3,57","+2,00","0,01"
"2012-07-30","3,56","3,56","3,58","3,58","+0,28","0,00"
"2012-07-31","3,58","3,40","3,58","3,50","-2,23","0,02"
"2012-08-01","3,48","3,15","3,48","3,36","-4,00","0,06"
"2012-08-02","3,36","3,30","3,65","3,36","+0,00","0,07"
"2012-08-03","3,46","3,15","3,46","3,28","-2,38","0,07"
"2012-08-06","3,27","3,27","3,27","3,27","-0,30","0,00"
"2012-08-07","3,27","3,27","3,43","3,43","+4,89","0,00"
"2012-08-08","3,46","3,43","3,59","3,53","+0,00","0,01"
"2012-08-09","3,53","3,53","3,53","3,53","+0,00","0,00"
"2012-08-10","3,53","3,53","3,53","3,53","+0,00","0,00"
"2012-08-13","3,48","3,48","3,58","3,58","+1,42","0,01"
"2012-08-14","3,57","3,44","3,57","3,44","-3,91","0,00"
"2012-08-16","3,44","3,44","3,46","3,46","+0,58","0,00"
"2012-08-17","3,47","3,47","3,47","3,47","+0,29","0,00"
"2012-08-20","3,53","3,41","3,53","3,48","+0,29","0,01"
"2012-08-21","3,49","3,39","3,49","3,49","+0,29","0,00"
"2012-08-22","3,53","3,43","3,53","3,50","+0,29","0,01"
"2012-08-23","3,50","3,44","3,56","3,56","+1,71","0,00"
"2012-08-24","3,56","3,56","3,70","3,70","+3,93","0,02"
"2012-08-27","3,73","3,60","3,73","3,69","-0,27","0,03"
"2012-08-28","3,58","3,50","3,64","3,59","-2,71","0,02"
"2012-08-29","3,60","3,44","3,60","3,60","+0,28","0,01"
"2012-08-30","3,60","3,50","3,64","3,59","-0,28","0,00"
"2012-08-31","3,50","3,35","3,59","3,55","-1,11","0,04"
"2012-09-03","3,55","3,50","3,55","3,55","+0,00","0,01"
"2012-09-04","3,58","3,53","3,58","3,53","-0,56","0,00"
"2012-09-05","3,27","3,27","3,45","3,43","-2,83","0,03"
"2012-09-06","3,42","3,31","3,46","3,43","+0,00","0,01"
"2012-09-07","3,40","3,40","3,63","3,49","+1,75","0,02"
"2012-09-10","3,50","3,50","3,71","3,60","+3,15","0,08"
"2012-09-11","3,60","3,48","3,66","3,58","-0,56","0,01"
"2012-09-12","3,59","3,59","3,63","3,60","+0,56","0,00"
"2012-09-13","3,60","3,60","3,60","3,60","+0,00","0,00"
"2012-09-14","3,55","3,52","3,61","3,60","+0,00","0,05"
"2012-09-17","3,61","3,52","3,61","3,59","-0,28","0,00"
"2012-09-18","3,60","3,50","3,60","3,52","-1,95","0,01"
"2012-09-19","3,50","3,39","3,60","3,55","+0,85","0,17"
"2012-09-20","3,55","3,30","3,55","3,33","-6,20","0,05"
"2012-09-21","3,33","3,33","3,44","3,44","+3,30","0,03"
"2012-09-24","3,49","3,49","3,58","3,55","+3,20","0,03"
"2012-09-25","3,56","3,50","3,56","3,56","+0,28","0,01"
"2012-09-26","3,60","3,50","3,60","3,59","+0,84","0,02"
"2012-09-27","3,59","3,51","3,79","3,79","+0,00","0,01"
"2012-09-28","3,79","3,69","3,79","3,69","-2,64","0,03"
"2012-10-01","3,69","3,67","3,72","3,70","+0,27","0,32"
"2012-10-02","3,66","3,66","3,76","3,70","+0,00","0,01"
"2012-10-03","3,70","3,58","3,70","3,69","-0,27","0,01"
"2012-10-04","3,69","3,51","3,69","3,64","-1,36","0,01"
"2012-10-05","3,66","3,60","3,66","3,64","+0,00","0,00"
"2012-10-08","3,64","3,63","3,68","3,68","+1,10","0,00"
"2012-10-09","3,68","3,68","3,90","3,70","+0,54","0,03"
"2012-10-10","3,75","3,61","3,75","3,70","+0,00","0,00"
"2012-10-11","3,70","3,67","3,71","3,70","+0,00","0,01"
"2012-10-12","3,67","3,67","3,79","3,70","+0,00","0,05"
"2012-10-15","3,70","3,68","3,70","3,70","+0,00","0,11"
"2012-10-16","3,70","3,61","3,70","3,69","-0,27","0,03"
"2012-10-17","3,69","3,61","3,70","3,70","+0,27","0,01"
"2012-10-18","3,70","3,65","3,70","3,70","+0,00","0,01"
"2012-10-19","3,72","3,67","3,72","3,67","-0,81","0,09"
"2012-10-22","3,70","3,67","3,70","3,70","+0,82","0,01"
"2012-10-23","3,67","3,59","3,69","3,65","-1,35","0,02"
"2012-10-24","3,60","3,52","3,64","3,56","-2,47","0,01"
"2012-10-25","3,57","3,57","3,57","3,57","+0,28","0,00"
"2012-10-26","3,55","3,50","3,59","3,59","+0,56","0,01"
"2012-10-29","3,60","3,42","3,60","3,46","-3,62","0,02"
"2012-10-30","3,42","3,30","3,53","3,53","+2,02","0,04"
"2012-10-31","3,53","3,51","3,70","3,64","+3,12","0,00"
"2012-11-02","3,64","3,47","3,70","3,55","-2,47","0,02"
"2012-11-05","3,53","3,53","3,67","3,59","+1,13","0,01"
"2012-11-06","3,63","3,55","3,63","3,60","+0,28","0,03"
"2012-11-07","3,63","3,59","3,66","3,60","+0,00","0,01"
"2012-11-08","3,58","3,58","3,63","3,60","+0,00","0,01"
"2012-11-09","3,58","3,58","3,63","3,58","-0,56","0,01"
"2012-11-12","3,60","3,59","3,60","3,59","+0,28","0,00"
"2012-11-13","3,55","3,36","3,62","3,55","-1,11","0,02"
"2012-11-14","3,42","3,36","3,55","3,55","+0,00","0,02"
"2012-11-15","3,50","3,19","3,54","3,42","-3,66","0,03"
"2012-11-16","3,22","3,22","3,41","3,32","+0,00","0,01"
"2012-11-19","3,38","3,38","3,38","3,38","+1,81","0,00"
"2012-11-20","3,41","3,40","3,48","3,47","+2,66","0,02"
"2012-11-21","3,48","3,40","3,49","3,47","+0,00","0,01"
"2012-11-22","3,50","3,45","3,50","3,49","+0,58","0,01"
"2012-11-23","3,49","3,41","3,49","3,49","+0,00","0,00"
"2012-11-26","3,49","3,40","3,49","3,48","-0,29","0,01"
"2012-11-27","3,40","3,40","3,45","3,45","-0,86","0,00"
"2012-11-28","3,44","3,28","3,44","3,37","-2,32","0,02"
"2012-11-29","3,37","3,17","3,48","3,17","-5,93","0,04"
"2012-11-30","3,25","3,25","3,48","3,45","+8,83","0,02"
"2012-12-03","3,48","3,42","3,60","3,60","+4,35","0,02"
"2012-12-04","3,58","3,48","3,58","3,55","-1,39","0,01"
"2012-12-05","3,55","3,43","3,59","3,59","+1,13","0,02"
"2012-12-06","3,59","3,43","3,59","3,57","-0,56","0,01"
"2012-12-07","3,57","3,42","3,60","3,55","-0,56","0,01"
"2012-12-10","3,57","3,50","3,60","3,57","+0,56","0,00"
"2012-12-11","3,58","3,52","3,58","3,58","+0,28","0,00"
"2012-12-12","3,58","3,41","3,58","3,55","-0,84","0,03"
"2012-12-13","3,55","3,45","3,89","3,89","+9,58","0,90"
"2012-12-14","3,90","3,90","4,17","3,99","+2,57","0,07"
"2012-12-17","4,09","3,78","4,09","3,86","-3,26","0,06"
"2012-12-18","3,91","3,76","3,91","3,80","-1,55","0,01"
"2012-12-19","3,83","3,83","3,90","3,89","+2,37","0,00"
"2012-12-20","3,89","3,80","3,90","3,86","-0,77","0,03"
"2012-12-21","3,83","3,80","3,83","3,80","-1,55","0,00"
"2012-12-27","3,80","3,60","3,83","3,82","+0,53","0,08"
"2012-12-28","3,82","3,74","3,90","3,90","+2,09","0,18"
"2013-01-02","3,89","3,75","3,89","3,84","-1,54","0,00"
"2013-01-03","3,79","3,70","3,85","3,80","-1,04","0,26"
"2013-01-04","3,80","3,72","3,80","3,78","-0,53","0,00"
"2013-01-07","3,75","3,70","3,78","3,74","+0,00","0,01"
"2013-01-08","3,74","3,60","3,74","3,69","-1,34","0,00"
"2013-01-09","3,70","3,69","3,72","3,71","+0,54","0,10"
"2013-01-10","3,75","3,70","3,79","3,70","-0,27","0,03"
"2013-01-11","3,70","3,70","3,76","3,75","+1,35","0,06"
"2013-01-14","3,73","3,73","3,77","3,75","+0,00","0,05"
"2013-01-15","3,75","3,62","3,76","3,68","-1,87","0,03"
"2013-01-16","3,67","3,64","3,73","3,73","+1,36","0,02"
"2013-01-17","3,71","3,67","3,76","3,75","+0,54","0,01"
"2013-01-18","3,76","3,73","3,76","3,76","+0,27","0,61"
"2013-01-21","3,78","3,78","4,56","4,32","+14,89","1,16"
"2013-01-22","4,26","4,17","4,30","4,21","-2,55","0,05"
"2013-01-23","4,24","4,13","4,25","4,19","-0,48","0,03"
"2013-01-24","4,11","4,11","4,44","4,35","+3,82","0,33"
"2013-01-25","4,35","4,25","4,35","4,32","-0,69","0,03"
"2013-01-28","4,32","4,29","4,58","4,52","+4,63","0,19"
"2013-01-29","4,55","4,43","4,58","4,55","+0,66","0,12"
"2013-01-30","4,56","4,35","4,74","4,52","-0,66","0,77"
"2013-01-31","4,49","4,20","4,49","4,42","-2,21","0,16"
"2013-02-01","4,30","4,14","4,37","4,27","-3,39","0,06"
"2013-02-04","4,15","3,99","4,36","4,28","+0,23","0,14"
"2013-02-05","4,28","4,23","4,38","4,37","+2,10","0,03"
"2013-02-06","4,38","4,30","4,40","4,33","-0,92","0,03"
"2013-02-07","4,32","4,22","4,40","4,28","-1,15","0,05"
"2013-02-08","4,28","4,13","4,28","4,28","+0,00","0,06"
"2013-02-11","4,30","4,29","4,47","4,39","+2,57","0,05"
"2013-02-12","4,39","4,38","4,49","4,46","+1,59","0,48"
"2013-02-13","4,48","4,38","4,58","4,42","-0,90","0,16"
"2013-02-14","4,42","4,38","4,48","4,39","-0,68","0,22"
"2013-02-15","4,42","4,38","4,48","4,45","+1,37","0,05"
"2013-02-18","4,45","4,45","4,65","4,65","+4,49","0,38"
"2013-02-19","4,65","4,57","4,87","4,87","+4,73","0,21"
"2013-02-20","4,90","4,65","4,90","4,65","-4,52","0,07"
"2013-02-21","4,55","4,51","4,75","4,73","+1,72","0,09"
"2013-02-22","4,70","4,70","4,81","4,79","+1,27","0,15"
"2013-02-25","4,78","4,78","4,94","4,90","+0,00","0,19"
"2013-02-26","4,90","4,90","5,16","5,08","+3,67","0,18"
"2013-02-27","5,08","4,86","5,15","4,97","-2,17","0,09"
"2013-02-28","4,91","4,91","5,05","4,97","+0,00","0,05"
"2013-03-01","4,88","4,88","4,98","4,98","+0,20","0,02"
"2013-03-04","4,99","4,79","4,99","4,80","-3,61","0,13"
"2013-03-05","4,84","4,67","4,84","4,70","-2,08","0,04"
"2013-03-06","4,71","4,71","4,81","4,80","+2,13","0,04"
"2013-03-07","4,79","4,79","4,88","4,79","-0,21","0,03"
"2013-03-08","4,79","4,57","4,79","4,74","-1,04","0,09"
"2013-03-11","4,89","4,70","4,89","4,75","+0,21","0,05"
"2013-03-12","4,76","4,69","4,80","4,69","-1,26","0,03"
"2013-03-13","4,70","4,37","4,74","4,62","-1,49","0,20"
"2013-03-14","4,59","4,46","4,60","4,58","-0,87","0,05"
"2013-03-15","4,55","4,42","4,70","4,55","-0,66","0,15"
"2013-03-18","4,68","4,67","4,74","4,74","+4,18","0,02"
"2013-03-19","4,67","4,65","4,74","4,71","-0,63","0,07"
"2013-03-20","4,71","4,71","4,74","4,72","+0,21","0,04"
"2013-03-21","4,70","4,45","4,70","4,63","-1,91","0,02"
"2013-03-22","4,47","4,25","4,50","4,48","-3,24","0,07"
"2013-03-25","4,51","4,32","4,51","4,39","-2,01","0,02"
"2013-03-26","4,28","3,99","4,37","4,11","-6,38","0,13"
"2013-03-27","4,30","4,02","4,30","4,21","+2,43","0,03"
"2013-03-28","4,27","4,21","4,34","4,28","+1,66","0,05"
"2013-04-02","4,18","4,09","4,18","4,16","-2,80","0,13"
"2013-04-03","4,16","4,12","4,16","4,12","-0,96","0,09"
"2013-04-04","4,12","4,00","4,12","4,00","-2,91","0,03"
"2013-04-05","4,12","4,00","4,18","4,00","+0,00","0,05"
"2013-04-08","3,90","3,90","4,10","4,01","+0,25","0,01"
"2013-04-09","4,04","4,04","4,13","4,05","+1,00","0,02"
"2013-04-10","4,02","3,77","4,02","3,79","-6,42","0,16"
"2013-04-11","3,80","3,67","3,82","3,80","+0,26","0,07"
"2013-04-12","3,80","3,65","3,80","3,69","-2,89","0,06"
"2013-04-15","3,66","3,65","3,71","3,71","+0,00","0,03"
"2013-04-17","3,73","3,60","3,73","3,67","-1,08","0,01"
"2013-04-18","3,61","3,47","3,61","3,47","-5,45","0,01"
"2013-04-19","3,52","3,30","3,52","3,51","+1,15","0,09"
"2013-04-22","3,58","3,26","3,58","3,45","-1,71","0,06"
"2013-04-23","3,30","3,30","3,42","3,40","-1,45","0,01"
"2013-04-24","3,42","3,40","3,48","3,46","+1,76","0,02"
"2013-04-25","3,45","3,35","3,48","3,35","-3,18","0,01"
"2013-04-26","3,35","3,25","3,44","3,44","+2,69","0,06"
"2013-04-29","3,47","3,47","3,54","3,51","+2,03","0,04"
"2013-04-30","3,51","3,50","3,51","3,50","-0,28","0,00"
"2013-05-02","3,50","3,49","3,50","3,49","-0,29","0,00"
"2013-05-06","3,49","3,26","3,49","3,40","-2,58","0,02"
"2013-05-07","3,32","3,32","3,50","3,48","+2,35","0,01"
"2013-05-08","3,48","3,45","3,53","3,53","+1,44","0,02"
"2013-05-09","3,60","3,57","3,65","3,57","+1,13","0,06"
"2013-05-10","3,60","3,57","3,66","3,66","+2,52","0,02"
"2013-05-13","3,66","3,65","3,86","3,80","+3,83","0,03"
"2013-05-14","3,82","3,81","3,94","3,94","+3,68","0,01"
"2013-05-15","4,01","4,01","4,40","4,40","+11,68","0,04"
"2013-05-16","4,45","4,29","4,46","4,46","+1,36","0,10"
"2013-05-17","4,49","4,36","4,49","4,48","+0,45","0,05"
"2013-05-20","4,40","4,35","4,41","4,40","-1,79","0,51"
"2013-05-21","4,40","4,30","4,40","4,40","+0,00","0,47"
"2013-05-22","4,32","4,32","4,32","4,32","-1,82","0,00"
"2013-05-24","4,29","4,17","4,29","4,28","-0,93","0,00"
"2013-05-27","3,98","3,98","4,39","4,39","+2,57","0,02"
"2013-05-28","4,25","4,25","4,39","4,30","-2,05","0,00"
"2013-05-29","4,47","4,22","4,47","4,29","-0,23","0,01"
"2013-05-31","4,28","4,28","4,40","4,32","+0,70","0,00"
"2013-06-03","4,41","4,32","4,41","4,39","+1,62","0,00"
"2013-06-04","4,37","4,19","4,37","4,33","+0,00","0,01"
"2013-06-05","4,26","4,26","4,31","4,31","-0,46","0,00"
"2013-06-06","4,23","4,23","4,25","4,24","-1,62","0,01"
"2013-06-07","4,24","4,07","4,24","4,20","-0,94","0,01"
"2013-06-10","4,11","4,11","4,44","4,44","+5,71","0,06"
"2013-06-11","4,28","4,28","4,43","4,40","-0,90","0,01"
"2013-06-12","4,39","4,16","4,39","4,25","-3,41","0,08"
"2013-06-13","4,10","4,10","4,45","4,39","+3,29","0,27"
"2013-06-14","4,32","4,32","4,46","4,46","+1,59","0,02"
"2013-06-17","4,46","4,19","4,48","4,48","+0,45","0,03"
"2013-06-18","4,49","4,40","4,55","4,55","+1,56","0,23"
"2013-06-19","4,58","4,58","4,74","4,74","+4,18","0,03"
"2013-06-20","4,85","4,37","4,85","4,72","-0,42","0,06"
"2013-06-21","4,33","4,33","4,60","4,53","-4,03","0,02"
"2013-06-24","4,30","4,30","4,39","4,38","-3,31","0,01"
"2013-06-25","4,33","4,33","4,39","4,39","+0,23","0,01"
"2013-06-26","4,35","4,33","4,35","4,33","-1,37","0,00"
"2013-06-27","4,36","4,15","4,43","4,21","-2,77","0,04"
"2013-06-28","4,21","3,82","4,21","4,18","-0,71","0,08"
"2013-07-01","4,17","4,00","4,17","4,02","-3,83","0,04"
"2013-07-02","4,00","4,00","4,15","4,15","+3,23","0,01"
"2013-07-03","4,05","4,05","4,27","4,27","+2,89","0,00"
"2013-07-04","4,25","4,15","4,30","4,18","-2,11","0,13"
"2013-07-05","4,18","4,12","4,18","4,12","-1,44","0,00"
"2013-07-08","4,14","4,03","4,15","4,15","+0,73","0,04"
"2013-07-09","4,18","4,10","4,20","4,10","-1,20","0,03"
"2013-07-10","4,12","4,05","4,15","4,15","+1,22","0,00"
"2013-07-11","4,15","4,07","4,15","4,10","-1,20","0,01"
"2013-07-12","4,13","4,02","4,13","4,08","-0,49","0,02"
"2013-07-15","4,05","4,05","4,10","4,10","+0,49","0,00"
"2013-07-16","4,16","4,08","4,20","4,18","+1,95","0,02"
"2013-07-17","4,20","4,10","4,20","4,18","+0,00","0,00"
"2013-07-18","4,15","4,15","4,15","4,15","-0,72","0,00"
"2013-07-22","4,05","3,94","4,05","3,95","-4,82","0,03"
"2013-07-23","3,90","3,90","3,92","3,92","-0,76","0,00"
"2013-07-24","3,99","3,97","4,11","4,01","+0,00","0,03"
"2013-07-25","4,14","4,14","4,20","4,20","+4,74","0,02"
"2013-07-26","4,20","4,15","4,20","4,17","-0,71","0,00"
"2013-07-29","4,19","4,19","4,20","4,20","+0,72","0,00"
"2013-07-30","4,20","4,14","4,20","4,14","-1,43","0,00"
"2013-07-31","4,10","4,08","4,10","4,08","-1,45","0,01"
"2013-08-01","4,10","4,01","4,10","4,02","-1,47","0,01"
"2013-08-02","4,02","4,02","4,10","4,10","+1,99","0,01"
"2013-08-05","4,10","4,02","4,10","4,10","+0,00","0,02"
"2013-08-06","4,11","4,10","4,20","4,20","+2,44","0,18"
"2013-08-07","4,16","4,16","4,40","4,40","+4,76","0,06"
"2013-08-08","4,70","4,60","4,70","4,64","+5,45","0,02"
"2013-08-09","4,64","4,35","4,70","4,60","-0,86","0,04"
"2013-08-12","4,64","4,45","4,65","4,45","-3,26","0,01"
"2013-08-13","4,47","4,38","4,47","4,40","-1,12","0,03"
"2013-08-14","4,40","4,40","4,70","4,70","+6,82","0,04"
"2013-08-16","4,75","4,60","4,75","4,60","-2,13","0,00"
"2013-08-19","4,60","4,60","4,80","4,80","+4,35","0,08"
"2013-08-20","4,86","4,80","4,88","4,86","+1,25","0,03"
"2013-08-21","4,86","4,70","4,86","4,73","-2,67","0,01"
"2013-08-22","4,81","4,73","4,81","4,79","+1,27","0,06"
"2013-08-23","4,80","4,75","4,85","4,80","+0,21","0,02"
"2013-08-26","4,80","4,80","4,99","4,90","+2,08","0,12"
"2013-08-27","4,98","4,90","4,98","4,90","+0,00","0,01"
"2013-08-28","4,90","4,89","4,90","4,90","+0,00","0,01"
"2013-08-29","4,90","4,83","4,90","4,83","-1,43","0,05"
"2013-08-30","4,90","4,41","4,90","4,84","+0,21","0,15"
"2013-09-02","4,66","4,65","4,66","4,65","-3,93","0,00"
"2013-09-03","4,70","4,70","4,91","4,91","+5,59","0,05"
"2013-09-04","4,93","4,85","4,95","4,95","+0,81","0,01"
"2013-09-05","4,95","4,78","4,95","4,90","-1,01","0,13"
"2013-09-06","4,82","4,82","4,89","4,89","-0,20","0,01"
"2013-09-09","4,85","4,85","4,89","4,89","+0,00","0,00"
"2013-09-10","4,89","4,80","5,18","5,16","+5,52","0,12"
"2013-09-11","5,20","5,20","5,39","5,35","+3,68","0,07"
"2013-09-12","5,35","5,33","5,35","5,33","+0,00","0,01"
"2013-09-13","5,60","5,60","6,16","6,02","+12,95","0,76"
"2013-09-16","6,50","6,21","6,50","6,46","+7,31","0,52"
"2013-09-17","6,48","6,36","6,86","6,77","+4,80","0,63"
"2013-09-18","6,77","6,55","6,77","6,59","-2,66","0,19"
"2013-09-19","6,58","6,48","6,89","6,71","+1,82","0,45"
"2013-09-20","6,77","6,70","6,77","6,71","+0,00","0,04"
"2013-09-23","6,63","6,41","6,63","6,41","-4,47","0,08"
"2013-09-24","6,41","6,25","6,41","6,29","-1,87","0,11"
"2013-09-25","6,29","6,20","6,41","6,36","+1,11","0,09"
"2013-09-26","6,30","6,20","6,30","6,30","-0,94","0,13"
"2013-09-27","6,37","6,20","6,37","6,23","-1,11","0,02"
"2013-09-30","6,20","5,90","6,28","6,27","+0,64","0,19"
"2013-10-01","6,21","6,10","6,21","6,17","-1,59","0,01"
"2013-10-02","6,17","6,00","6,17","6,10","-1,13","0,03"
"2013-10-03","6,06","6,05","6,24","6,17","+1,15","0,04"
"2013-10-04","6,17","6,10","6,34","6,34","+2,76","0,03"
"2013-10-07","6,33","6,07","6,33","6,19","-2,37","0,01"
"2013-10-08","6,15","6,11","6,20","6,11","-1,29","0,01"
"2013-10-10","6,06","5,85","6,40","6,40","+4,75","0,18"
"2013-10-11","6,40","6,27","6,40","6,38","-0,31","0,05"
"2013-10-14","6,40","6,31","6,40","6,38","+0,00","0,15"
"2013-10-15","6,39","6,25","6,40","6,32","-0,94","0,02"
"2013-10-16","6,28","6,26","6,32","6,32","+0,00","0,03"
"2013-10-17","6,32","6,22","6,32","6,25","-1,11","0,02"
"2013-10-18","6,27","6,20","6,35","6,35","+1,60","0,04"
"2013-10-21","6,28","6,13","6,40","6,40","+0,79","0,06"
"2013-10-22","6,40","6,31","6,66","6,57","+2,66","0,30"
"2013-10-23","6,55","6,50","6,65","6,60","+0,46","0,07"
"2013-10-24","6,70","6,60","6,70","6,70","+1,52","0,11"
"2013-10-25","6,70","6,63","6,80","6,69","-0,15","0,14"
"2013-10-28","6,65","6,64","7,00","6,95","+3,89","0,29"
"2013-10-29","6,95","6,90","7,04","7,00","+0,72","0,32"
"2013-10-30","7,05","7,00","7,19","7,01","+0,14","0,22"
"2013-10-31","6,91","6,90","6,97","6,97","-0,57","0,02"
"2013-11-04","7,03","7,00","7,10","7,05","+0,00","0,07"
"2013-11-05","7,01","7,01","7,03","7,01","-0,57","0,05"
"2013-11-06","7,00","6,84","7,05","7,05","+0,57","0,09"
"2013-11-07","7,05","6,96","7,10","7,10","+0,71","0,13"
"2013-11-08","7,08","6,85","7,08","6,87","-3,24","0,03"